Title="ROUND RESULT"
VARIBLES="X","Density","Velocity","Pressure","Internal Energy"
ZONE T="STD: Geom"
STRANDID= 2 
SOLUTIONTIME= 1 
I= 400 
F=POINT
 0.001250 0.146223 0.007278 67.842581 0.001064 1159.918095
0.003750 0.146262 0.037087 67.842371 0.005424 1159.600022
0.006250 0.146347 0.062001 67.874667 0.009074 1159.480620
0.008750 0.146417 0.090637 67.905976 0.013271 1159.463259
0.011250 0.146507 0.117286 67.956987 0.017183 1159.619398
0.013750 0.146603 0.145237 68.014608 0.021292 1159.843637
0.016250 0.146715 0.172842 68.084008 0.025359 1160.140109
0.018750 0.146836 0.200951 68.160916 0.029507 1160.494292
0.021250 0.146967 0.229124 68.245862 0.033674 1160.905535
0.023750 0.147106 0.257655 68.336641 0.037903 1161.346586
0.026250 0.147254 0.286374 68.432824 0.042170 1161.813626
0.028750 0.147407 0.315544 68.532447 0.046514 1162.297015
0.031250 0.147563 0.345319 68.634024 0.050956 1162.789483
0.033750 0.147721 0.375770 68.736490 0.055509 1163.285834
0.036250 0.147879 0.406795 68.839527 0.060156 1163.784595
0.038750 0.148037 0.438226 68.943189 0.064874 1164.286031
0.041250 0.148198 0.469858 69.047762 0.069632 1164.791490
0.043750 0.148360 0.501500 69.153583 0.074402 1165.302453
0.046250 0.148525 0.532762 69.261839 0.079129 1165.824551
0.048750 0.148697 0.563223 69.373912 0.083749 1166.364424
0.051250 0.148871 0.593412 69.487644 0.088342 1166.911602
0.053750 0.149046 0.623545 69.602114 0.092937 1167.461674
0.056250 0.149221 0.653682 69.717017 0.097543 1168.013155
0.058750 0.149397 0.683832 69.832284 0.102163 1168.565716
0.061250 0.149575 0.713837 69.948496 0.106772 1169.122126
0.063750 0.149754 0.743568 70.066150 0.111352 1169.684738
0.066250 0.149935 0.773167 70.184698 0.115925 1170.250927
0.068750 0.150117 0.802653 70.304073 0.120492 1170.820357
0.071250 0.150300 0.832030 70.424266 0.125054 1171.392974
0.073750 0.150485 0.861301 70.545272 0.129612 1171.968746
0.076250 0.150670 0.890468 70.667081 0.134167 1172.547613
0.078750 0.150856 0.919535 70.789678 0.138718 1173.129491
0.081250 0.151044 0.948508 70.913044 0.143267 1173.714285
0.083750 0.151233 0.977389 71.037163 0.147813 1174.301907
0.086250 0.151422 1.006180 71.162025 0.152358 1174.892291
0.088750 0.151613 1.034883 71.287619 0.156902 1175.485385
0.091250 0.151805 1.063500 71.413938 0.161444 1176.081140
0.093750 0.151998 1.092032 71.540973 0.165986 1176.679499
0.096250 0.152191 1.120484 71.668708 0.170528 1177.280382
0.098750 0.152386 1.148860 71.797123 0.175070 1177.883679
0.101250 0.152581 1.177168 71.926191 0.179614 1178.489255
0.103750 0.152778 1.205416 72.055879 0.184161 1179.096949
0.106250 0.152975 1.233615 72.186154 0.188712 1179.706593
0.108750 0.153173 1.261773 72.316981 0.193269 1180.318020
0.111250 0.153371 1.289898 72.448327 0.197833 1180.931074
0.113750 0.153570 1.318000 72.580167 0.202406 1181.545621
0.116250 0.153770 1.346082 72.712477 0.206987 1182.161554
0.118750 0.153971 1.374151 72.845243 0.211579 1182.778792
0.121250 0.154171 1.402208 72.978454 0.216180 1183.397285
0.123750 0.154373 1.430255 73.112104 0.220793 1184.016999
0.126250 0.154575 1.458293 73.246190 0.225416 1184.637916
0.128750 0.154778 1.486322 73.380711 0.230050 1185.260021
0.131250 0.154981 1.514344 73.515665 0.234694 1185.883300
0.133750 0.155185 1.542359 73.651048 0.239350 1186.507733
0.136250 0.155389 1.570368 73.786855 0.244017 1187.133294
0.138750 0.155593 1.598373 73.923083 0.248696 1187.759952
0.141250 0.155799 1.626376 74.059722 0.253387 1188.387669
0.143750 0.156005 1.654381 74.196766 0.258091 1189.016401
0.146250 0.156211 1.682389 74.334205 0.262807 1189.646097
0.148750 0.156417 1.710404 74.472027 0.267537 1190.276699
0.151250 0.156625 1.738431 74.610218 0.272281 1190.908138
0.153750 0.156832 1.766474 74.748763 0.277040 1191.540339
0.156250 0.157040 1.794537 74.887643 0.281814 1192.173223
0.158750 0.157249 1.822625 75.026843 0.286605 1192.806705
0.161250 0.157457 1.850743 75.166345 0.291413 1193.440711
0.163750 0.157666 1.878895 75.306138 0.296238 1194.075178
0.166250 0.157876 1.907081 75.446214 0.301082 1194.710067
0.168750 0.158085 1.935304 75.586570 0.305943 1195.345368
0.171250 0.158295 1.963561 75.727213 0.310822 1195.981102
0.173750 0.158505 1.991850 75.868155 0.315719 1196.617321
0.176250 0.158716 2.020167 76.009411 0.320633 1197.254097
0.178750 0.158927 2.048508 76.151002 0.325564 1197.891514
0.181250 0.159139 2.076869 76.292946 0.330510 1198.529653
0.183750 0.159351 2.105245 76.435256 0.335472 1199.168571
0.186250 0.159563 2.133637 76.577940 0.340449 1199.808296
0.188750 0.159776 2.162044 76.720996 0.345442 1200.448822
0.191250 0.159989 2.190469 76.864413 0.350451 1201.090101
0.193750 0.160202 2.218917 77.008172 0.355476 1201.732035
0.196250 0.160416 2.247395 77.152249 0.360519 1202.374484
0.198750 0.160631 2.275909 77.296615 0.365581 1203.017293
0.201250 0.160845 2.304465 77.441244 0.370662 1203.660342
0.203750 0.161060 2.333071 77.586110 0.375765 1204.303557
0.206250 0.161275 2.361732 77.731188 0.380889 1204.946839
0.208750 0.161490 2.390452 77.876461 0.386035 1205.590094
0.211250 0.161706 2.419235 78.021911 0.391204 1206.233244
0.213750 0.161921 2.448086 78.167521 0.396397 1206.876218
0.216250 0.162137 2.477008 78.313278 0.401614 1207.518955
0.218750 0.162352 2.506003 78.459170 0.406856 1208.161398
0.221250 0.162568 2.535074 78.605183 0.412122 1208.803500
0.223750 0.162784 2.564223 78.751308 0.417414 1209.445223
0.226250 0.163000 2.593452 78.897540 0.422732 1210.086545
0.228750 0.163216 2.622760 79.043877 0.428076 1210.727465
0.231250 0.163432 2.652147 79.190322 0.433445 1211.368004
0.233750 0.163648 2.681609 79.336885 0.438839 1212.008204
0.236250 0.163864 2.711145 79.483577 0.444258 1212.648129
0.238750 0.164080 2.740748 79.630418 0.449701 1213.287858
0.241250 0.164296 2.770415 79.777427 0.455168 1213.927482
0.243750 0.164513 2.800140 79.924624 0.460658 1214.567093
0.246250 0.164729 2.829918 80.072029 0.466170 1215.206783
0.248750 0.164946 2.859745 80.219663 0.471704 1215.846635
0.251250 0.165163 2.889617 80.367541 0.477258 1216.486722
0.253750 0.165381 2.919530 80.515676 0.482834 1217.127103
0.256250 0.165598 2.949482 80.664081 0.488429 1217.767826
0.258750 0.165816 2.979472 80.812761 0.494045 1218.408922
0.261250 0.166034 3.009498 80.961723 0.499680 1219.050413
0.263750 0.166253 3.039560 81.110969 0.505336 1219.692308
0.266250 0.166472 3.069658 81.260501 0.511011 1220.334609
0.268750 0.166691 3.099792 81.410319 0.516707 1220.977310
0.271250 0.166910 3.129964 81.560420 0.522423 1221.620399
0.273750 0.167130 3.160173 81.710802 0.528160 1222.264057
0.276250 0.167350 3.190421 81.861463 0.533917 1222.908437
0.278750 0.167570 3.220710 82.012398 0.539695 1223.553291
0.281250 0.167791 3.251040 82.163602 0.545494 1224.197898
0.283750 0.168012 3.281413 82.315072 0.551316 1224.841346
0.286250 0.168233 3.311831 82.466804 0.557160 1225.483362
0.288750 0.168455 3.342295 82.618792 0.563026 1226.125196
0.291250 0.168677 3.372805 82.771033 0.568914 1226.769571
0.293750 0.168899 3.403362 82.923524 0.574824 1227.414848
0.296250 0.169121 3.433968 83.076261 0.580756 1228.060364
0.298750 0.169343 3.464623 83.229241 0.586711 1228.706067
0.301250 0.169566 3.495329 83.382460 0.592688 1229.351941
0.303750 0.169789 3.526085 83.535913 0.598689 1229.997960
0.306250 0.170012 3.556894 83.689592 0.604714 1230.644094
0.308750 0.170235 3.587759 83.843487 0.610762 1231.290300
0.311250 0.170458 3.618680 83.997589 0.616835 1231.936539
0.313750 0.170682 3.649660 84.151891 0.622931 1232.582785
0.316250 0.170906 3.680697 84.306393 0.629052 1233.229039
0.318750 0.171130 3.711791 84.461101 0.635198 1233.875320
0.321250 0.171354 3.742942 84.616012 0.641367 1234.521626
0.323750 0.171578 3.774155 84.771099 0.647562 1235.167836
0.326250 0.171802 3.805449 84.926273 0.653785 1235.813587
0.328750 0.172026 3.836870 85.081329 0.660043 1236.458026
0.331250 0.172248 3.868703 85.234968 0.666377 1237.095775
0.333750 0.172466 3.901239 85.385862 0.672830 1237.721353
0.336250 0.172682 3.934049 85.535940 0.679341 1238.342789
0.338750 0.172899 3.966959 85.685998 0.685882 1238.963385
0.341250 0.173115 3.999911 85.836294 0.692445 1239.584199
0.343750 0.173332 4.032902 85.986846 0.699030 1240.205306
0.346250 0.173548 4.066064 86.137052 0.705657 1240.824225
0.348750 0.173758 4.100205 86.283201 0.712445 1241.425750
0.351250 0.173964 4.135086 86.426373 0.719357 1242.014349
0.353750 0.174168 4.170378 86.568062 0.726345 1242.597074
0.356250 0.174369 4.206036 86.708467 0.733403 1243.173594
0.358750 0.174569 4.242073 86.847521 0.740533 1243.744474
0.361250 0.174766 4.278525 86.985046 0.747740 1244.307956
0.363750 0.174961 4.315429 87.120859 0.755030 1244.863957
0.366250 0.175153 4.352811 87.254830 0.762407 1245.410483
0.368750 0.175342 4.390681 87.386899 0.769873 1245.946476
0.371250 0.175530 4.429038 87.517063 0.777427 1246.472178
0.373750 0.175714 4.467871 87.645355 0.785067 1246.989321
0.376250 0.175895 4.507169 87.771819 0.792789 1247.501790
0.378750 0.176074 4.546918 87.896502 0.800592 1248.007782
0.381250 0.176250 4.587108 88.019451 0.808476 1248.506315
0.383750 0.176423 4.627726 88.140714 0.816437 1248.997544
0.386250 0.176594 4.668760 88.260344 0.824475 1249.481705
0.388750 0.176763 4.710196 88.378397 0.832586 1249.959045
0.391250 0.176929 4.752020 88.494928 0.840770 1250.429809
0.393750 0.177093 4.794221 88.609994 0.849024 1250.894239
0.396250 0.177255 4.836786 88.723648 0.857347 1251.352575
0.398750 0.177416 4.879700 88.835949 0.865735 1251.805069
0.401250 0.177574 4.922951 88.946959 0.874188 1252.251983
0.403750 0.177730 4.966525 89.056736 0.882703 1252.693570
0.406250 0.177885 5.010409 89.165332 0.891278 1253.130048
0.408750 0.178038 5.054595 89.272784 0.899912 1253.561582
0.411250 0.178190 5.099077 89.379118 0.908603 1253.988290
0.413750 0.178339 5.143849 89.484358 0.917351 1254.410276
0.416250 0.178488 5.188904 89.588532 0.926156 1254.827637
0.418750 0.178634 5.234233 89.691677 0.935014 1255.240732
0.421250 0.178780 5.279826 89.793839 0.943925 1255.649754
0.423750 0.178923 5.325673 89.895060 0.952887 1256.055660
0.426250 0.179066 5.371764 89.995384 0.961899 1256.457003
0.428750 0.179207 5.418091 90.094847 0.970959 1256.855461
0.431250 0.179347 5.464643 90.193486 0.980066 1257.249690
0.433750 0.179485 5.511415 90.291336 0.989219 1257.641391
0.436250 0.179623 5.558398 90.388424 0.998417 1258.028927
0.438750 0.179760 5.605588 90.484767 1.007658 1258.413964
0.441250 0.179895 5.652981 90.580378 1.016943 1258.795641
0.443750 0.180029 5.700576 90.675269 1.026271 1259.173744
0.446250 0.180163 5.748366 90.769464 1.035640 1259.549395
0.448750 0.180295 5.796343 90.863004 1.045051 1259.921910
0.451250 0.180426 5.844499 90.955933 1.054501 1260.291898
0.453750 0.180557 5.892825 91.048292 1.063990 1260.659284
0.456250 0.180687 5.941320 91.140105 1.073517 1261.024350
0.458750 0.180816 5.989981 91.231387 1.083082 1261.387153
0.461250 0.180944 6.038808 91.322145 1.092684 1261.748141
0.463750 0.181071 6.087799 91.412398 1.102323 1262.108477
0.466250 0.181197 6.136951 91.502172 1.111994 1262.471185
0.468750 0.181320 6.186256 91.591498 1.121695 1262.840269
0.471250 0.181444 6.235710 91.680399 1.131429 1263.208213
0.473750 0.181566 6.285309 91.768887 1.141200 1263.573507
0.476250 0.181688 6.335051 91.856963 1.151004 1263.936354
0.478750 0.181810 6.384933 91.944624 1.160843 1264.297063
0.481250 0.181931 6.434952 92.031869 1.170715 1264.655866
0.483750 0.182051 6.485100 92.118705 1.180618 1265.012948
0.486250 0.182171 6.535369 92.205144 1.190552 1265.368476
0.488750 0.182290 6.585751 92.291200 1.200514 1265.722552
0.491250 0.182408 6.636238 92.376886 1.210503 1266.075141
0.493750 0.182526 6.686822 92.462216 1.220518 1266.426065
0.496250 0.182643 6.737496 92.547205 1.230559 1266.775112
0.498750 0.182760 6.788253 92.631865 1.240623 1267.122255
0.501250 0.182877 6.839089 92.716210 1.250711 1267.467842
0.503750 0.182993 6.890002 92.800248 1.260821 1267.812502
0.506250 0.183108 6.940991 92.883994 1.270953 1268.156721
0.508750 0.183223 6.992052 92.967465 1.281106 1268.500601
0.511250 0.183338 7.043186 93.050686 1.291280 1268.843868
0.513750 0.183452 7.094391 93.133677 1.301477 1269.185876
0.516250 0.183566 7.145670 93.216447 1.311699 1269.525642
0.518750 0.183679 7.197030 93.298991 1.321946 1269.862031
0.521250 0.183793 7.248478 93.381291 1.332222 1270.194104
0.523750 0.183907 7.300022 93.463335 1.342528 1270.521367
0.526250 0.184022 7.351664 93.545129 1.352866 1270.843514
0.528750 0.184136 7.403401 93.626700 1.363235 1271.160135
0.531250 0.184252 7.455230 93.708082 1.373639 1271.468559
0.533750 0.184370 7.507145 93.789303 1.384094 1271.752764
0.536250 0.184498 7.559142 93.870397 1.394650 1271.966974
0.538750 0.184634 7.611214 93.951402 1.405289 1272.129838
0.541250 0.184770 7.663349 94.032364 1.415957 1272.289128
0.543750 0.184903 7.715537 94.113327 1.426629 1272.465743
0.546250 0.185033 7.767773 94.194313 1.437291 1272.672373
0.548750 0.185157 7.820057 94.275273 1.447935 1272.913165
0.551250 0.185277 7.872406 94.356227 1.458579 1273.174811
0.553750 0.185404 7.924785 94.437021 1.469290 1273.392745
0.556250 0.185549 7.977264 94.518051 1.480172 1273.493209
0.558750 0.185737 8.029679 94.598464 1.491411 1273.282828
0.561250 0.186049 8.082359 94.679935 1.503714 1272.245186
0.563750 0.186698 8.134734 94.759876 1.518741 1268.890246
0.566250 0.188330 8.187509 94.841396 1.541957 1258.976430
0.568750 0.192864 8.240287 94.920852 1.589254 1230.412240
0.571250 0.206273 8.294682 95.006749 1.710966 1151.470589
0.573750 0.246878 8.342409 95.068946 2.059554 962.713268
0.576250 0.321467 8.398728 95.218313 2.699917 740.497537
0.578750 0.406311 8.447813 95.351024 3.432438 586.687666
0.581250 0.501290 8.502808 95.566301 4.262370 476.602163
0.583750 0.604939 8.555376 95.805404 5.175484 395.929724
0.586250 0.716108 8.608612 96.096372 6.164695 335.481442
0.588750 0.833313 8.661745 96.435066 7.217946 289.312210
0.591250 0.954870 8.714831 96.823884 8.321530 253.500221
0.593750 1.078886 8.767877 97.264103 9.459535 225.380958
0.596250 1.203359 8.820949 97.757117 10.614765 203.092231
0.598750 1.326309 8.874121 98.303880 11.769829 185.295906
0.601250 1.445915 8.927410 98.904121 12.908275 171.006126
0.603750 1.560591 8.980773 99.555381 14.015311 159.483497
0.606250 1.668997 9.034132 100.254015 15.077942 150.171025
0.608750 1.769948 9.087473 100.996323 16.084357 142.654343
0.611250 1.862242 9.140761 101.777981 17.022308 136.633683
0.613750 1.944503 9.194016 102.595104 17.877796 131.903989
0.616250 2.014868 9.247495 103.447346 18.632478 128.355014
0.618750 2.066849 9.300992 104.325589 19.223750 126.189150
0.621250 2.087878 9.354240 105.213012 19.530512 125.980790
0.623750 2.101147 9.407450 106.105087 19.766438 126.246609
0.626250 2.113811 9.460486 106.998347 19.997676 126.546758
0.628750 2.126390 9.513242 107.890853 20.228867 126.847419
0.631250 2.138940 9.565774 108.783494 20.460612 127.146530
0.633750 2.151463 9.618105 109.676605 20.693001 127.444197
0.636250 2.163937 9.670147 110.568415 20.925593 127.739849
0.638750 2.177067 9.724657 111.509533 21.171231 128.050178
0.641250 2.185998 9.762758 112.151793 21.341366 128.261558
0.643750 2.223031 9.812077 114.816764 21.812553 129.121855
0.646250 3.605094 4.776794 242.336137 17.220792 168.051178
0.648750 5.094986 1.404042 398.499400 7.153576 195.535081
0.651250 5.261892 1.194759 417.649537 6.286691 198.431262
0.653750 5.109202 1.557635 401.583500 7.958273 196.500119
0.656250 5.018554 1.781246 392.381138 8.939279 195.465225
0.658750 4.975104 1.889004 388.383798 9.397992 195.163669
0.661250 4.901269 2.040814 381.080299 10.002578 194.378364
0.663750 4.818253 2.208168 372.812757 10.639511 193.437715
0.666250 4.741708 2.364314 365.188517 11.210885 192.540605
0.668750 4.663994 2.522098 357.627452 11.763048 191.695940
0.671250 4.586242 2.687781 349.910622 12.326812 190.739308
0.673750 4.513803 2.856726 342.231310 12.894697 189.547089
0.676250 4.445177 3.026606 334.593027 13.453802 188.177554
0.678750 4.387019 3.198003 326.934827 14.029698 186.308087
0.681250 4.354677 3.372890 319.315817 14.687846 183.317750
0.683750 4.329279 3.552643 311.755565 15.380380 180.027429
0.686250 4.307282 3.737503 304.276941 16.098478 176.606107
0.688750 4.293743 3.923783 296.714110 16.847717 172.759595
0.691250 4.288669 4.109764 288.980530 17.625419 168.455834
0.693750 4.284907 4.296574 281.115483 18.410418 164.014941
0.696250 4.274479 4.485069 273.159974 19.171335 159.762139
0.698750 4.256529 4.676666 265.190650 19.906361 155.755234
0.701250 4.236457 4.872787 257.280477 20.643352 151.825257
0.703750 4.218528 5.072762 249.414483 21.399589 147.808967
0.706250 4.202344 5.276007 241.584367 22.171599 143.720006
0.708750 4.183229 5.480992 233.758400 22.928243 139.699746
0.711250 4.154106 5.681911 225.767638 23.603257 135.870182
0.713750 4.106504 5.865899 217.221774 24.088338 132.242509
0.716250 4.030240 6.011063 207.485079 24.226026 128.705174
0.718750 3.938798 6.141329 197.537279 24.189453 125.379166
0.721250 3.841511 6.271435 187.932628 24.091788 122.303831
0.723750 3.749866 6.422438 179.330265 24.083280 119.557791
0.726250 3.676875 6.622468 172.491425 24.349988 117.281260
0.728750 3.605644 6.835344 166.240218 24.645817 115.263881
0.731250 3.531629 7.051081 160.288156 24.901799 113.466173
0.733750 3.458473 7.279771 154.912143 25.176890 111.980168
0.736250 3.401093 7.546921 150.778287 25.667782 110.830750
0.738750 3.369481 7.835138 147.363276 26.400345 109.336792
0.741250 3.384741 8.123794 144.098357 27.496943 106.432324
0.743750 3.439712 8.405312 140.819686 28.911849 102.348467
0.746250 3.518991 8.676952 137.497539 30.534118 97.682499
0.748750 3.623869 8.936730 134.169600 32.385541 92.559632
0.751250 3.753374 9.181652 130.883431 34.462171 87.177189
0.753750 3.907979 9.410051 127.760139 36.774282 81.730313
0.756250 4.091518 9.621525 124.988473 39.366641 76.370483
0.758750 4.309349 9.812866 122.691661 42.287068 71.177601
0.761250 4.565749 9.979330 120.912217 45.563115 66.206127
0.763750 4.859094 10.118373 119.665749 49.166124 61.567936
0.766250 5.173985 10.232331 118.934907 52.941930 57.467747
0.768750 5.475265 10.330361 118.568281 56.561469 54.138144
0.771250 5.711750 10.423962 118.260088 59.539070 51.761755
0.773750 5.781399 10.519741 117.767925 60.818818 50.925361
0.776250 5.763178 10.619972 117.075391 61.204788 50.785950
0.778750 5.733474 10.722729 116.235571 61.478487 50.682873
0.781250 5.697146 10.826462 115.247412 61.679931 50.572433
0.783750 5.651717 10.930723 114.060712 61.777351 50.454011
0.786250 5.590833 11.035759 112.651929 61.699086 50.373501
0.788750 5.501440 11.143696 111.114865 61.306375 50.493535
0.791250 5.336853 11.255983 109.582266 60.071528 51.332811
0.793750 4.928696 11.368533 108.063142 56.032044 54.813251
0.796250 4.131849 11.481031 106.618885 47.437886 64.510397
0.798750 3.264356 11.596065 105.428861 37.853691 80.742454
0.801250 2.412887 11.713258 104.582900 28.262769 108.358674
0.803750 1.660163 11.829167 104.005844 19.638346 156.619917
0.806250 1.083415 11.943818 103.630026 12.940116 239.128102
0.808750 0.882396 12.078055 103.493118 10.657622 293.216343
0.811250 0.864577 12.211373 103.360204 10.557673 298.875039
0.813750 0.862088 12.338038 103.150408 10.636475 299.129564
0.816250 0.860585 12.462007 102.904042 10.724616 298.936305
0.818750 0.859141 12.584388 102.635138 10.811763 298.656298
0.821250 0.858215 12.705611 102.346857 10.904145 298.138759
0.823750 0.858149 12.825857 102.040769 11.006492 297.270072
0.826250 0.858096 12.945343 101.722507 11.108346 296.361111
0.828750 0.857888 13.065115 101.402404 11.208406 295.500091
0.831250 0.857464 13.186282 101.087889 11.306764 294.729212
0.833750 0.856791 13.308094 100.776488 11.402250 294.052280
0.836250 0.855819 13.429573 100.457274 11.493282 293.453684
0.838750 0.854684 13.552962 100.149370 11.583501 292.942661
0.841250 0.854307 13.674603 100.001878 11.682314 292.640203
0.843750 0.856048 13.773958 100.235569 11.791176 292.727489
0.846250 0.859546 13.835094 100.785117 11.891895 293.134852
0.848750 0.862232 13.872654 101.214023 11.961440 293.465328
