Title="WENO5 RESULT"
VARIBLES="X","Density","Velocity","Pressure","Internal Energy"
ZONE T="STD: Geom"
STRANDID= 2 
SOLUTIONTIME= 1 
I= 400 
F=POINT
 0.001250 0.147394 0.015069 68.668878 0.002221 1164.716815
0.003750 0.147446 0.054135 68.668217 0.007982 1164.290574
0.006250 0.147525 0.091820 68.680752 0.013546 1163.886983
0.008750 0.147590 0.130453 68.693972 0.019253 1163.597197
0.011250 0.147649 0.168142 68.714782 0.024826 1163.479983
0.013750 0.147702 0.205908 68.739256 0.030413 1163.478998
0.016250 0.147756 0.243057 68.769843 0.035913 1163.567411
0.018750 0.147814 0.279911 68.805153 0.041375 1163.710179
0.021250 0.147878 0.316200 68.846034 0.046759 1163.895605
0.023750 0.147950 0.352016 68.891965 0.052081 1164.112618
0.026250 0.148028 0.387253 68.943187 0.057324 1164.358121
0.028750 0.148115 0.421936 68.999437 0.062495 1164.628671
0.031250 0.148209 0.456029 69.060696 0.067587 1164.923227
0.033750 0.148310 0.489550 69.126755 0.072605 1165.240417
0.036250 0.148419 0.522499 69.197477 0.077549 1165.579537
0.038750 0.148534 0.554897 69.272649 0.082421 1165.939622
0.041250 0.148656 0.586764 69.352074 0.087226 1166.319825
0.043750 0.148784 0.618124 69.435526 0.091967 1166.719122
0.046250 0.148917 0.649001 69.522779 0.096648 1167.136479
0.048750 0.149056 0.679423 69.613600 0.101272 1167.570775
0.051250 0.149201 0.709415 69.707763 0.105845 1168.020899
0.053750 0.149349 0.739006 69.805051 0.110370 1168.485750
0.056250 0.149503 0.768224 69.905260 0.114851 1168.964284
0.058750 0.149660 0.797100 70.008201 0.119294 1169.455517
0.061250 0.149821 0.825664 70.113694 0.123702 1169.958519
0.063750 0.149986 0.853943 70.221568 0.128079 1170.472398
0.066250 0.150153 0.881963 70.331653 0.132430 1170.996285
0.068750 0.150324 0.909745 70.443782 0.136757 1171.529333
0.071250 0.150498 0.937308 70.557796 0.141063 1172.070735
0.073750 0.150674 0.964668 70.673547 0.145351 1172.619751
0.076250 0.150853 0.991844 70.790907 0.149623 1173.175741
0.078750 0.151034 1.018854 70.909768 0.153882 1173.738176
0.081250 0.151217 1.045720 71.030046 0.158131 1174.306624
0.083750 0.151402 1.072461 71.151664 0.162373 1174.880716
0.086250 0.151589 1.099095 71.274553 0.166610 1175.460095
0.088750 0.151777 1.125634 71.398634 0.170845 1176.044373
0.091250 0.151967 1.152084 71.523819 0.175079 1176.633127
0.093750 0.152159 1.178450 71.650020 0.179311 1177.225916
0.096250 0.152351 1.204734 71.777153 0.183543 1177.822339
0.098750 0.152545 1.230944 71.905157 0.187775 1178.422085
0.101250 0.152741 1.257089 72.033993 0.192009 1179.024964
0.103750 0.152937 1.283185 72.163646 0.196246 1179.630898
0.106250 0.153134 1.309249 72.294114 0.200491 1180.239855
0.108750 0.153333 1.335294 72.425385 0.204745 1180.851773
0.111250 0.153533 1.361330 72.557427 0.209008 1181.466493
0.113750 0.153733 1.387355 72.690182 0.213282 1182.083733
0.116250 0.153935 1.413367 72.823574 0.217566 1182.703130
0.118750 0.154137 1.439358 72.957528 0.221858 1183.324323
0.121250 0.154340 1.465328 73.091990 0.226158 1183.947054
0.123750 0.154543 1.491286 73.226941 0.230468 1184.571230
0.126250 0.154747 1.517247 73.362400 0.234790 1185.196924
0.128750 0.154952 1.543231 73.498403 0.239127 1185.824297
0.131250 0.155158 1.569256 73.634980 0.243482 1186.453476
0.133750 0.155364 1.595331 73.772128 0.247857 1187.084441
0.136250 0.155571 1.621453 73.909798 0.252251 1187.716970
0.138750 0.155779 1.647612 74.047907 0.256663 1188.350673
0.141250 0.155987 1.673790 74.186360 0.261089 1188.985113
0.143750 0.156195 1.699981 74.325084 0.265529 1189.619960
0.146250 0.156404 1.726185 74.464056 0.269982 1190.255109
0.148750 0.156612 1.752421 74.603312 0.274451 1190.890710
0.151250 0.156822 1.778714 74.742924 0.278941 1191.527085
0.153750 0.157032 1.805091 74.882964 0.283456 1192.164555
0.156250 0.157242 1.831566 75.023468 0.287999 1192.803265
0.158750 0.157453 1.858140 75.164403 0.292569 1193.443062
0.161250 0.157664 1.884797 75.305675 0.297165 1194.083512
0.163750 0.157876 1.911512 75.447154 0.301781 1194.724034
0.166250 0.158087 1.938265 75.588726 0.306415 1195.364119
0.168750 0.158299 1.965048 75.730335 0.311065 1196.003532
0.171250 0.158510 1.991876 75.872008 0.315733 1196.642401
0.173750 0.158722 2.018779 76.013838 0.320424 1197.281156
0.176250 0.158934 2.045790 76.155947 0.325145 1197.920333
0.178750 0.159146 2.072938 76.298421 0.329900 1198.560307
0.181250 0.159359 2.100229 76.441269 0.334690 1199.201095
0.183750 0.159572 2.127646 76.584405 0.339512 1199.842294
0.186250 0.159785 2.155157 76.727677 0.344362 1200.483212
0.188750 0.159998 2.182725 76.870921 0.349232 1201.123122
0.191250 0.160211 2.210327 77.014034 0.354118 1201.761567
0.193750 0.160423 2.237965 77.157009 0.359021 1202.398551
0.196250 0.160635 2.265664 77.299949 0.363946 1203.034556
0.198750 0.160848 2.293465 77.443022 0.368899 1203.670350
0.201250 0.161060 2.321408 77.586390 0.373887 1204.306669
0.203750 0.161273 2.349512 77.730141 0.378914 1204.943895
0.206250 0.161487 2.377769 77.874246 0.383978 1205.581881
0.208750 0.161701 2.406147 78.018568 0.389075 1206.219989
0.211250 0.161914 2.434598 78.162918 0.394196 1206.857347
0.213750 0.162127 2.463083 78.307134 0.399333 1207.493217
0.216250 0.162340 2.491586 78.451153 0.404485 1208.127319
0.218750 0.162553 2.520123 78.595050 0.409654 1208.759984
0.221250 0.162766 2.548737 78.739008 0.414847 1209.392048
0.223750 0.162979 2.577478 78.883251 0.420074 1210.024531
0.226250 0.163192 2.606385 79.027952 0.425341 1210.658231
0.228750 0.163406 2.635467 79.173158 0.430652 1211.293383
0.231250 0.163621 2.664696 79.318766 0.436000 1211.929550
0.233750 0.163836 2.694020 79.464559 0.441376 1212.565776
0.236250 0.164050 2.723377 79.610290 0.446770 1213.200959
0.238750 0.164264 2.752726 79.755784 0.452174 1213.834291
0.241250 0.164478 2.782056 79.901009 0.457586 1214.465591
0.243750 0.164691 2.811396 80.046097 0.463011 1215.095395
0.246250 0.164904 2.840802 80.191295 0.468460 1215.724754
0.248750 0.165118 2.870334 80.336874 0.473944 1216.354837
0.251250 0.165333 2.900032 80.483017 0.479470 1216.986471
0.253750 0.165548 2.929903 80.629753 0.485039 1217.619828
0.256250 0.165764 2.959912 80.776945 0.490646 1218.254367
0.258750 0.165980 2.990001 80.924343 0.496280 1218.889067
0.261250 0.166196 3.020110 81.071686 0.501929 1219.522838
0.263750 0.166411 3.050200 81.218806 0.507586 1220.154962
0.266250 0.166626 3.080270 81.365695 0.513252 1220.785383
0.268750 0.166840 3.110359 81.512508 0.518933 1221.414712
0.271250 0.167055 3.140525 81.659502 0.524641 1222.043978
0.273750 0.167270 3.170829 81.806928 0.530386 1222.674188
0.276250 0.167487 3.201306 81.954931 0.536176 1223.305912
0.278750 0.167703 3.231952 82.103489 0.542009 1223.939034
0.281250 0.167921 3.262728 82.252417 0.547879 1224.572782
0.283750 0.168138 3.293574 82.401437 0.553775 1225.206026
0.286250 0.168355 3.324434 82.550283 0.559685 1225.837716
0.288750 0.168571 3.355280 82.698807 0.565603 1226.467293
0.291250 0.168787 3.386121 82.847026 0.571533 1227.094902
0.293750 0.169002 3.417006 82.995119 0.577482 1227.721329
0.296250 0.169218 3.447999 83.143346 0.583463 1228.347668
0.298750 0.169434 3.479163 83.291940 0.589488 1228.974869
0.301250 0.169650 3.510531 83.441013 0.595562 1229.603331
0.303750 0.169867 3.542099 83.590496 0.601687 1230.232693
0.306250 0.170084 3.573828 83.740162 0.607852 1230.861933
0.308750 0.170301 3.605660 83.889697 0.614048 1231.489695
0.311250 0.170517 3.637548 84.038813 0.620265 1232.114760
0.313750 0.170733 3.669469 84.187342 0.626498 1232.736449
0.316250 0.170947 3.701442 84.335289 0.632750 1233.354825
0.318750 0.171161 3.733522 84.482813 0.639032 1233.970605
0.321250 0.171374 3.765781 84.630149 0.645356 1234.584826
0.323750 0.171587 3.798284 84.777505 0.651736 1235.198385
0.326250 0.171800 3.831071 84.924960 0.658178 1235.811638
0.328750 0.172013 3.864142 85.072421 0.664683 1236.424198
0.331250 0.172226 3.897464 85.219635 0.671243 1237.035013
0.333750 0.172437 3.930987 85.366268 0.677849 1237.642685
0.336250 0.172647 3.964666 85.512007 0.684490 1238.245914
0.338750 0.172856 3.998483 85.656657 0.691162 1238.843889
0.341250 0.173063 4.032457 85.800192 0.697869 1239.436501
0.343750 0.173268 4.066643 85.942740 0.704620 1240.024283
0.346250 0.173472 4.101112 86.084515 0.711430 1240.608116
0.348750 0.173676 4.135933 86.225718 0.718311 1241.188804
0.351250 0.173878 4.171149 86.366439 0.725272 1241.766696
0.353750 0.174080 4.206767 86.506606 0.732313 1242.341474
0.356250 0.174280 4.242761 86.645997 0.739429 1242.912192
0.358750 0.174479 4.279083 86.784299 0.746610 1243.477555
0.361250 0.174676 4.315686 86.921207 0.753846 1244.036320
0.363750 0.174870 4.352544 87.056518 0.761130 1244.587682
0.366250 0.175062 4.389663 87.190185 0.768464 1245.131507
0.368750 0.175252 4.427079 87.322319 0.775854 1245.668329
0.371250 0.175440 4.464850 87.453136 0.783312 1246.199124
0.373750 0.175626 4.503035 87.582863 0.790849 1246.724932
0.376250 0.175811 4.541673 87.711653 0.798474 1247.246485
0.378750 0.175994 4.580772 87.839521 0.806188 1247.763948
0.381250 0.176176 4.620305 87.966338 0.813985 1248.276878
0.383750 0.176355 4.660225 88.091873 0.821855 1248.784395
0.386250 0.176533 4.700475 88.215874 0.829787 1249.285497
0.388750 0.176707 4.741015 88.338157 0.837773 1249.779406
0.391250 0.176880 4.781828 88.458667 0.845808 1250.265825
0.393750 0.177049 4.822929 88.577498 0.853897 1250.745012
0.396250 0.177217 4.864357 88.694861 0.862047 1251.217662
0.398750 0.177383 4.906159 88.811012 0.870269 1251.684644
0.401250 0.177547 4.948370 88.926167 0.878570 1252.146698
0.403750 0.177711 4.991006 89.040439 0.886955 1252.604204
0.406250 0.177873 5.034051 89.153806 0.895420 1253.057101
0.408750 0.178033 5.077464 89.266126 0.903956 1253.504996
0.411250 0.178192 5.121190 89.377201 0.912553 1253.947400
0.413750 0.178348 5.165178 89.486850 0.921200 1254.384015
0.416250 0.178502 5.209397 89.594976 0.929890 1254.814950
0.418750 0.178654 5.253840 89.701608 0.938620 1255.240791
0.421250 0.178804 5.298524 89.806896 0.947396 1255.662477
0.423750 0.178952 5.343484 89.911065 0.956225 1256.081020
0.426250 0.179098 5.388756 90.014353 0.965114 1256.497148
0.428750 0.179243 5.434365 90.116938 0.974071 1256.910999
0.431250 0.179387 5.480313 90.218895 0.983097 1257.321972
0.433750 0.179530 5.526575 90.320182 0.992188 1257.728802
0.436250 0.179673 5.573113 90.420670 1.001337 1258.129858
0.438750 0.179814 5.619879 90.520194 1.010534 1258.523603
0.441250 0.179955 5.666830 90.618621 1.019772 1258.909098
0.443750 0.180094 5.713944 90.715897 1.029046 1259.286411
0.446250 0.180232 5.761217 90.812069 1.038354 1259.656824
0.448750 0.180368 5.808667 90.907280 1.047700 1260.022750
0.451250 0.180503 5.856324 91.001725 1.057087 1260.387375
0.453750 0.180637 5.904215 91.095598 1.066520 1260.754069
0.456250 0.180769 5.952357 91.189036 1.076002 1261.125694
0.458750 0.180899 6.000751 91.282092 1.085532 1261.503945
0.461250 0.181028 6.049377 91.374725 1.095105 1261.888854
0.463750 0.181154 6.098200 91.466826 1.104715 1262.278570
0.466250 0.181279 6.147184 91.558261 1.114356 1262.669471
0.468750 0.181403 6.196294 91.648922 1.124027 1263.056606
0.471250 0.181527 6.245512 91.738764 1.133726 1263.434421
0.473750 0.181651 6.294833 91.827821 1.143460 1263.797651
0.476250 0.181776 6.344271 91.916203 1.153235 1264.142273
0.478750 0.181903 6.393846 92.004063 1.163059 1264.466366
0.481250 0.182032 6.443582 92.091557 1.172939 1264.770751
0.483750 0.182163 6.493494 92.178805 1.182874 1265.059267
0.486250 0.182295 6.543583 92.265864 1.192861 1265.338613
0.488750 0.182426 6.593839 92.352722 1.202889 1265.617757
0.491250 0.182555 6.644239 92.439311 1.212942 1265.906975
0.493750 0.182681 6.694756 92.525537 1.223005 1266.216622
0.496250 0.182802 6.745365 92.611314 1.233063 1266.555709
0.498750 0.182916 6.796048 92.696594 1.243104 1266.930452
0.501250 0.183023 6.846800 92.781381 1.253125 1267.343082
0.503750 0.183125 6.897627 92.865733 1.263128 1267.791104
0.506250 0.183222 6.948540 92.949744 1.273125 1268.266991
0.508750 0.183316 6.999556 93.033519 1.283131 1268.757991
0.511250 0.183410 7.050684 93.117147 1.293169 1269.245883
0.513750 0.183508 7.101930 93.200681 1.303263 1269.706916
0.516250 0.183614 7.153288 93.284130 1.313443 1270.112203
0.518750 0.183732 7.204744 93.367464 1.323744 1270.428094
0.521250 0.183869 7.256281 93.450634 1.334204 1270.615254
0.523750 0.184031 7.307880 93.533589 1.344873 1270.625644
0.526250 0.184226 7.359527 93.616300 1.355818 1270.398494
0.528750 0.184467 7.411215 93.698778 1.367125 1269.857472
0.531250 0.184767 7.462944 93.781070 1.378906 1268.909274
0.533750 0.185144 7.514720 93.863265 1.391302 1267.439293
0.536250 0.185619 7.566552 93.945469 1.404498 1265.297938
0.538750 0.186227 7.618452 94.027803 1.418759 1262.276582
0.541250 0.187011 7.670423 94.110381 1.434456 1258.084367
0.543750 0.188034 7.722468 94.193318 1.452086 1252.344959
0.546250 0.189369 7.774582 94.276728 1.472262 1244.619330
0.548750 0.191103 7.826754 94.360738 1.495719 1234.420592
0.551250 0.193353 7.878977 94.445504 1.523424 1221.153607
0.553750 0.196293 7.931239 94.531247 1.556846 1203.956528
0.556250 0.200198 7.983535 94.618296 1.598285 1181.561304
0.558750 0.205453 8.035865 94.707153 1.650996 1152.416187
0.561250 0.212511 8.088228 94.798534 1.718838 1115.218496
0.563750 0.221805 8.140630 94.893370 1.805629 1069.560716
0.566250 0.233734 8.193076 94.992770 1.914997 1016.036677
0.568750 0.248808 8.245577 95.098022 2.051564 955.536968
0.571250 0.267983 8.298143 95.210684 2.223765 888.214227
0.573750 0.293116 8.350778 95.332877 2.447745 813.099008
0.576250 0.327257 8.403476 95.467766 2.750099 729.301889
0.578750 0.374350 8.456213 95.620109 3.165584 638.574122
0.581250 0.438076 8.508966 95.796387 3.727577 546.687628
0.583750 0.520561 8.561716 96.004300 4.456900 461.061277
0.586250 0.621861 8.614463 96.252016 5.357001 386.951329
0.588750 0.740180 8.667234 96.547445 6.415315 326.094380
0.591250 0.872316 8.720059 96.897444 7.606649 277.701587
0.593750 1.014096 8.772947 97.307052 8.896611 239.886188
0.596250 1.160774 8.825892 97.779225 10.244870 210.590502
0.598750 1.307398 8.878900 98.314942 11.608252 187.997412
0.601250 1.449102 8.931980 98.913153 12.943353 170.645570
0.603750 1.581334 8.985133 99.570649 14.208498 157.415576
0.606250 1.700030 9.038349 100.282192 15.365465 147.471206
0.608750 1.801885 9.091617 101.040930 16.382047 140.187823
0.611250 1.884844 9.144927 101.838858 17.236759 135.075991
0.613750 1.948852 9.198263 102.667375 17.926052 131.702380
0.616250 1.996437 9.251606 103.518336 18.470247 129.628863
0.618750 2.032012 9.304934 104.385132 18.907734 128.425858
0.621250 2.059849 9.358214 105.262987 19.276505 127.755723
0.623750 2.082803 9.411393 106.148406 19.602082 127.410497
0.626250 2.102451 9.464389 107.038278 19.898418 127.277944
0.628750 2.119701 9.517218 107.931724 20.173659 127.295915
0.631250 2.135105 9.569474 108.820508 20.431830 127.418231
0.633750 2.149409 9.621906 109.717347 20.681407 127.613412
0.636250 2.162485 9.672237 110.580414 20.916071 127.839496
0.638750 2.175718 9.724857 111.489368 21.158551 128.106383
0.641250 2.187316 9.771780 112.296688 21.373968 128.349880
0.643750 2.219504 9.741145 114.749034 21.620513 129.250744
0.646250 3.580119 4.903341 240.831797 17.554544 168.173032
0.648750 5.019258 1.458078 389.997279 7.318468 194.250464
0.651250 5.166974 1.350828 407.168975 6.979695 197.005513
0.653750 5.132871 1.540991 404.472815 7.909707 197.001238
0.656250 5.057576 1.714084 396.367648 8.669109 195.927679
0.658750 4.986811 1.849070 389.229639 9.220962 195.129530
0.661250 4.913008 2.001257 381.592534 9.832191 194.174590
0.663750 4.838323 2.170703 373.947241 10.502563 193.221534
0.666250 4.764447 2.334355 366.538939 11.121913 192.330248
0.668750 4.685013 2.498648 358.445370 11.706200 191.272344
0.671250 4.605263 2.666857 350.249747 12.281579 190.135566
0.673750 4.528781 2.837887 342.263531 12.852167 188.938018
0.676250 4.457297 3.020655 334.505059 13.463959 187.616526
0.678750 4.395982 3.214207 327.037555 14.129595 185.986649
0.681250 4.349471 3.399258 319.204880 14.784975 183.473399
0.683750 4.321440 3.577426 311.020758 15.459632 179.928902
0.686250 4.300121 3.755910 302.754694 16.150867 176.015210
0.688750 4.283169 3.939282 294.619594 16.872612 171.963570
0.691250 4.278722 4.134617 286.890652 17.690877 167.626363
0.693750 4.282823 4.341659 279.510387 18.594556 163.157794
0.696250 4.273433 4.544312 271.825521 19.419813 159.020570
0.698750 4.240242 4.733320 263.542805 20.070421 155.381948
0.701250 4.200246 4.914326 254.980944 20.641376 151.765488
0.703750 4.176768 5.102255 246.748440 21.310937 147.691007
0.706250 4.171623 5.300582 238.941144 22.112033 143.194344
0.708750 4.166047 5.500342 231.196971 22.914687 138.738800
0.711250 4.142425 5.696883 223.363071 23.598910 134.802118
0.713750 4.089669 5.881813 215.208032 24.054672 131.555886
0.716250 4.001730 6.029481 205.974768 24.128353 128.678584
0.718750 3.887836 6.131378 195.590826 23.837791 125.771008
0.721250 3.782278 6.239858 185.887097 23.600875 122.867172
0.723750 3.709871 6.400147 178.162136 23.743721 120.059527
0.726250 3.667209 6.604567 171.995347 24.220326 117.252225
0.728750 3.642511 6.831429 166.642490 24.883553 114.373367
0.731250 3.629557 7.073766 161.852453 25.674638 111.482239
0.733750 3.623572 7.326806 157.485560 26.549209 108.653535
0.736250 3.621474 7.587665 153.460953 27.478530 105.938184
0.738750 3.622313 7.853430 149.709112 28.447579 103.324259
0.741250 3.627828 8.120179 146.137796 29.458610 100.706129
0.743750 3.642854 8.383560 142.649313 30.540083 97.896680
0.746250 3.674515 8.640145 139.182399 31.748341 94.694412
0.748750 3.730005 8.888218 135.745592 33.153095 90.982189
0.751250 3.814099 9.126961 132.417393 34.811134 86.794668
0.753750 3.928183 9.354204 129.312977 36.745022 82.298220
0.756250 4.071046 9.564799 126.549442 38.938740 77.713091
0.758750 4.240893 9.752238 124.240119 41.358196 73.239361
0.761250 4.437144 9.913521 122.492810 43.987718 69.015576
0.763750 4.659223 10.053130 121.357444 46.839768 65.116789
0.766250 4.901957 10.180814 120.739779 49.905915 61.577332
0.768750 5.152310 10.303834 120.373803 53.088546 58.407687
0.771250 5.392275 10.422503 119.923685 56.201003 55.599764
0.773750 5.605528 10.532955 119.148091 59.042772 53.138659
0.776250 5.781474 10.634120 118.009211 61.480888 51.029033
0.778750 5.915563 10.733170 116.704448 63.492751 49.320935
0.781250 6.003683 10.841122 115.502634 65.086660 48.096574
0.783750 6.033593 10.962224 114.480587 66.141595 47.434667
0.786250 5.979846 11.088996 113.431869 66.310491 47.422568
0.788750 5.799357 11.210997 112.140003 65.016569 48.341570
0.791250 5.407298 11.322080 110.562010 61.221856 51.117036
0.793750 4.732708 11.424302 108.888995 54.067891 57.519387
0.796250 3.848180 11.523188 107.374172 44.343309 69.756455
0.798750 2.906831 11.624339 106.208212 33.789994 91.343626
0.801250 2.071592 11.733245 105.457520 24.306493 127.266289
0.803750 1.473542 11.845734 104.945841 17.455191 178.050252
0.806250 1.148000 11.963804 104.623592 13.734452 227.838759
0.808750 0.995269 12.087310 104.428640 12.030122 262.312666
0.811250 0.924067 12.213394 104.286160 11.285993 282.139082
0.813750 0.892120 12.340616 104.168578 11.009316 291.912882
0.816250 0.878455 12.468000 104.055478 10.952580 296.131989
0.818750 0.872833 12.594295 103.931951 10.992718 297.685633
0.821250 0.870571 12.718355 103.783248 11.072234 298.032024
0.823750 0.869720 12.839340 103.597382 11.166630 297.789488
0.826250 0.869543 12.957220 103.374023 11.266862 297.207861
0.828750 0.869618 13.072486 103.118044 11.368068 296.446408
0.831250 0.869534 13.184828 102.825606 11.464656 295.634233
0.833750 0.869016 13.294100 102.496953 11.552785 294.865002
0.836250 0.868091 13.401885 102.156218 11.634059 294.197813
0.838750 0.866879 13.508591 101.819282 11.710316 293.637477
0.841250 0.865466 13.612470 101.488151 11.781129 293.160456
0.843750 0.864350 13.715500 101.236759 11.854995 292.811765
0.846250 0.864311 13.815373 101.189791 11.940781 292.689126
0.848750 0.865814 13.888085 101.418374 12.024495 292.841189
